Time (ms),angleL,angleR,angDispL,angDispR,dThetaL,dThetaR
5520,0.4118977034706618,2.117084382669122,0.020943951023931984,0.012217304763960435,0.020943951023931984,0.012217304763960435
Time (ms),angleL,angleR,angDispL,angDispR,dThetaL,dThetaR
10808,0.44505895925855404,2.1362830044410597,0.013962634015954656,0.008726646259971993,0.013962634015954656,0.008726646259971993
13425,0.4572762640225143,2.1432643214490366,0.026179938779914924,0.015707963267948877,0.012217304763960268,0.006981317007976884
15736,0.47123889803846897,2.1485003092050197,0.04014257279586958,0.020943951023931984,0.013962634015954656,0.005235987755983107
18015,0.4834562028024293,2.1537362969610028,0.052359877559829904,0.02617993877991509,0.012217304763960324,0.005235987755983107
20280,0.49741883681838395,2.16071761396898,0.06632251157578456,0.03316125578789242,0.013962634015954656,0.006981317007977328
22545,0.5113814708343386,2.1694442602289516,0.08028514559173922,0.04188790204786397,0.013962634015954656,0.008726646259971549
24809,0.5253441048502933,2.178170906488923,0.09424777960769387,0.050614548307835516,0.013962634015954656,0.008726646259971549
27071,0.5393067388662478,2.192133540504878,0.10821041362364842,0.06457718232379017,0.013962634015954545,0.013962634015954656
29354,0.5532693728822025,2.2060961745208325,0.12217304763960307,0.07853981633974483,0.013962634015954656,0.013962634015954656
31622,0.5689773361501514,2.2218041377887814,0.13788101090755206,0.0942477796076937,0.015707963267948988,0.015707963267948877
33884,0.5846852994181004,2.2375121010567303,0.15358897417550105,0.10995574287564258,0.015707963267948988,0.015707963267948877
36142,0.6021385919380436,2.253220064324679,0.17104226669544426,0.12566370614359146,0.01745329251994321,0.015707963267948877
38425,0.6178465552059926,2.272418686096617,0.18675022996339324,0.14486232791552922,0.015707963267948988,0.019198621771937763
40681,0.6335545184739416,2.28987197861656,0.20245819323134223,0.16231562043547232,0.015707963267948988,0.017453292519943098
42938,0.6510078109938848,2.309070600388498,0.21991148575128544,0.18151424220741053,0.01745329251994321,0.019198621771938207
45197,0.6667157742618339,2.3282692221604355,0.23561944901923454,0.20071286397934784,0.0157079632679491,0.01919862177193732
47477,0.6841690667817772,2.3474678439323733,0.25307274153917786,0.2199114857512856,0.01745329251994332,0.019198621771937763
49738,0.7033676885537148,2.3666664657043106,0.2722713633111154,0.23911010752322293,0.01919862177193754,0.01919862177193732
51994,0.7208209810736581,2.384119758224254,0.2897246558310587,0.25656340004316647,0.01745329251994332,0.017453292519943542
54252,0.7382742735936013,2.4015730507441972,0.30717794835100193,0.27401669256310957,0.01745329251994321,0.017453292519943098
56526,0.7557275661135446,2.419026343264141,0.32463124087094525,0.2914699850830531,0.01745329251994332,0.017453292519943542
58783,0.773180858633488,2.436479635784084,0.34208453339088857,0.3089232776029962,0.01745329251994332,0.017453292519943098
61045,0.7906341511534313,2.4574235868080163,0.3595378259108319,0.32986722862692863,0.01745329251994332,0.020943951023932428
63303,0.8045967851693859,2.4766222085799536,0.37350045992678654,0.34906585039886595,0.013962634015954656,0.01919862177193732
65564,0.8237954069413236,2.494075501099897,0.3926990816987242,0.3665191429188095,0.019198621771937652,0.017453292519943542
67824,0.8395033702092726,2.5115287936198403,0.4084070449666732,0.3839724354387526,0.015707963267948988,0.017453292519943098
70096,0.8569566627292158,2.5324727446437723,0.4258603374866164,0.4049163864626846,0.01745329251994321,0.020943951023931984
72522,0.8744099552491591,2.5499260371637154,0.4433136300065597,0.42236967898262767,0.01745329251994332,0.017453292519943098
75056,0.8936085770210968,2.572615317439642,0.46251225177849736,0.4450589592585543,0.019198621771937652,0.02268928027592665
77573,0.9145525280450286,2.5935592684635735,0.48345620280242924,0.46600291028248586,0.020943951023931873,0.02094395102393154
80088,0.9337511498169663,2.614503219487506,0.5026548245743669,0.4869468613064183,0.019198621771937652,0.020943951023932428
82600,0.9546951008408983,2.6337018412594433,0.5235987755982989,0.5061454830783556,0.020943951023931984,0.01919862177193732
85116,0.9738937226128358,2.6546457922833753,0.5427973973702365,0.5270894341022876,0.01919862177193754,0.020943951023931984
87643,0.9948376736367679,2.6720990848033184,0.5637413483941686,0.5445427266222307,0.020943951023932095,0.017453292519943098
90178,1.0140362954087054,2.694788365079245,0.5829399701661061,0.5672320068981573,0.01919862177193754,0.02268928027592665
92691,1.0332349171806432,2.7139869868511823,0.6021385919380439,0.5864306286700947,0.019198621771937763,0.01919862177193732
95213,1.0506882097005865,2.73318560862312,0.6195918844579872,0.6056292504420324,0.01745329251994332,0.019198621771937763
97727,1.069886831472524,2.7523842303950574,0.6387905062299247,0.6248278722139697,0.01919862177193754,0.01919862177193732
100238,1.0873401239924672,2.775073510670984,0.6562437987498678,0.6475171524898964,0.017453292519943098,0.02268928027592665
102749,1.1082840750163994,2.7960174616949156,0.6771877497738,0.6684611035138279,0.020943951023932206,0.02094395102393154
105263,1.1274826967883367,2.815216083466854,0.6963863715457373,0.6876597252857661,0.01919862177193732,0.019198621771938207
107820,1.1484266478122689,2.8379053637427796,0.7173303225696696,0.7103490055616919,0.020943951023932206,0.02268928027592576
110339,1.1676252695842066,2.8605946440187062,0.7365289443416073,0.7330382858376185,0.019198621771937763,0.02268928027592665
112853,1.1868238913561442,2.8815385950426378,0.7557275661135449,0.7539822368615501,0.01919862177193754,0.02094395102393154
115368,1.2077678423800762,2.90248254606657,0.7766715171374768,0.7749261878854825,0.020943951023931984,0.020943951023932428
117884,1.2287117934040082,2.9251718263424964,0.7976154681614088,0.7976154681614087,0.020943951023931984,0.022689280275926205
120390,1.24965574442794,2.9461157773664284,0.8185594191853406,0.8185594191853407,0.02094395102393176,0.020943951023931984
122933,1.2723450247038663,2.9688050576423546,0.841248699461267,0.8412486994612669,0.022689280275926427,0.022689280275926205
125451,1.2950343049797925,2.9897490086662866,0.8639379797371932,0.8621926504851989,0.022689280275926205,0.020943951023931984
128117,1.3159782560037245,3.0106929596902186,0.8848819307611252,0.8831366015091309,0.020943951023931984,0.020943951023931984
Time (ms),angleL,angleR,angDispL,angDispR,dThetaL,dThetaR
134409,1.371828792067543,3.061307507998054,0.024434609527920426,0.020943951023931984,0.024434609527920426,0.020943951023931984
136962,1.392772743091475,3.0787608005179976,0.04537856055185241,0.038397243543875526,0.020943951023931984,0.017453292519943542
139484,1.4119713648634127,3.0944687637859465,0.06457718232379017,0.0541052068118244,0.019198621771937763,0.015707963267948877
142003,1.4346606451393389,3.110176727053895,0.08726646259971638,0.06981317007977283,0.022689280275926205,0.015707963267948433
144522,1.457349925415265,3.1276300195738385,0.10995574287564258,0.08726646259971638,0.022689280275926205,0.017453292519943542
147037,1.481784534943186,3.1468286413457762,0.13439035240356345,0.10646508437165414,0.02443460952792087,0.019198621771937763
149562,1.5062191444711064,3.167772592369708,0.15882496193148388,0.12740903539558612,0.024434609527920426,0.020943951023931984
152078,1.5341444125030157,3.1887165433936397,0.1867502299633932,0.14835298641951766,0.02792526803190931,0.02094395102393154
154598,1.5585790220309363,3.209660494417572,0.21118483949131384,0.1692969374434501,0.024434609527920648,0.020943951023932428
157114,1.5812683023068625,3.2306044454415037,0.23387411976724004,0.19024088846738163,0.022689280275926205,0.02094395102393154
159629,1.6057029118347832,3.251548396465436,0.2583087292951607,0.21118483949131406,0.024434609527920648,0.020943951023932428
162144,1.6301375213627038,3.2742376767413623,0.28274333882308134,0.23387411976724026,0.024434609527920648,0.022689280275926205
164662,1.656317460142619,3.2969269570172886,0.3089232776029964,0.25656340004316647,0.02617993877991509,0.022689280275926205
167176,1.6824973989225338,3.3196162372932148,0.3351032163829113,0.27925268031909267,0.02617993877991487,0.022689280275926205
169879,1.710422666954443,3.344050846821135,0.3630284844148204,0.3036872898470131,0.02792526803190909,0.024434609527920426
172338,1.7348572764823638,3.366740127097062,0.38746309394274125,0.32637657012293975,0.02443460952792087,0.02268928027592665
174595,1.7610372152622786,3.3894294073729876,0.4136430327226561,0.3490658503988655,0.02617993877991487,0.02268928027592576
176850,1.7819811662862104,3.41037335839692,0.4345869837465879,0.37000980142279793,0.02094395102393176,0.020943951023932428
179103,1.8046704465621368,3.431317309420852,0.4572762640225143,0.3909537524467299,0.022689280275926427,0.020943951023931984
181358,1.8256143975860686,3.4505159311927893,0.4782202150464461,0.41015237421866724,0.02094395102393176,0.01919862177193732
183611,1.8465583486100006,3.47495054072071,0.49916416607037806,0.4345869837465881,0.020943951023931984,0.02443460952792087
185866,1.8640116411299439,3.4941491624926475,0.5166174585903214,0.4537856055185254,0.01745329251994332,0.01919862177193732
188117,1.88670092140587,3.51509311351658,0.5393067388662476,0.47472955654245785,0.022689280275926205,0.020943951023932428
190401,1.9093902016817965,3.5360370645405115,0.561996019142174,0.4956735075663894,0.022689280275926427,0.02094395102393154
192656,1.928588823453734,3.556981015564444,0.5811946409141115,0.5166174585903218,0.01919862177193754,0.020943951023932428
194906,1.9512781037296605,3.5779249665883754,0.603883921190038,0.5375614096142534,0.022689280275926427,0.02094395102393154
197179,1.9704767255015982,3.597123588360313,0.6230825429619757,0.5567600313861911,0.019198621771937763,0.019198621771937763
199456,1.9896753472735358,3.6163222101322505,0.6422811647339133,0.5759586531581284,0.01919862177193754,0.01919862177193732
201720,2.0106192982974678,3.639011490408177,0.6632251157578453,0.5986479334340551,0.020943951023931984,0.02268928027592665
203974,2.0315632493213998,3.6599554414321087,0.6841690667817772,0.6195918844579866,0.020943951023931984,0.02094395102393154
206231,2.050761871093337,3.6826447217080354,0.7033676885537146,0.6422811647339133,0.01919862177193732,0.02268928027592665
208480,2.071705822117269,3.703588672731967,0.7243116395776465,0.6632251157578448,0.020943951023931984,0.02094395102393154
210734,2.0943951023931953,3.7280232822598878,0.7470009198535728,0.6876597252857657,0.022689280275926205,0.02443460952792087
212987,2.1153390534171272,3.7472219040318255,0.7679448708775047,0.7068583470577035,0.020943951023931984,0.019198621771937763
215244,2.1362830044410597,3.7699111843077517,0.7888888219014372,0.7295476273336297,0.020943951023932428,0.022689280275926205
217500,2.158972284716986,3.7926004645836784,0.8115781021773634,0.7522369076095563,0.022689280275926205,0.02268928027592665
219751,2.179916235740918,3.81354441560761,0.8325220532012954,0.7731808586334878,0.020943951023931984,0.02094395102393154
222001,2.2008601867648494,3.8327430373795477,0.8534660042252269,0.7923794804054256,0.02094395102393154,0.019198621771937763
224337,2.2270401255447645,3.8536869884034797,0.879645943005142,0.8133234314293576,0.02617993877991509,0.020943951023931984
226661,2.251474735072685,3.8746309394274117,0.9040805525330624,0.8342673824532896,0.024434609527920426,0.020943951023931984
228997,2.2741640153486116,3.895574890451343,0.9267698328089891,0.8552113334772211,0.02268928027592665,0.02094395102393154
231365,2.298598624876532,3.91826417072727,0.9512044423369095,0.8779006137531478,0.024434609527920426,0.02268928027592665
Time (ms),angleL,angleR,angDispL,angDispR,dThetaL,dThetaR
236735,2.345722514680379,3.9636427312791223,0.02443460952792087,0.02443460952792087,0.02443460952792087,0.02443460952792087
239016,2.3666664657043106,3.981096023799066,0.04537856055185241,0.04188790204786441,0.02094395102393154,0.017453292519943542
241277,2.387610416728243,4.000294645571003,0.06632251157578484,0.06108652381980173,0.020943951023932428,0.01919862177193732
243571,2.412045026256163,4.0212385965949355,0.09075712110370482,0.08203047484373416,0.02443460952791998,0.020943951023932428
245831,2.4329889772800954,4.038691889114879,0.11170107212763725,0.09948376736367726,0.020943951023932428,0.017453292519943098
248085,2.4556782575560216,4.057890510886816,0.13439035240356345,0.11868238913561457,0.022689280275926205,0.01919862177193732
250343,2.4766222085799536,4.077089132658754,0.15533430342749543,0.13788101090755278,0.020943951023931984,0.019198621771938207
252604,2.4958208303518914,4.09977841293468,0.1745329251994332,0.16057029118347854,0.019198621771937763,0.02268928027592576
254858,2.5150194521238287,4.122467693210607,0.19373154697137052,0.1832595714594052,0.01919862177193732,0.02268928027592665
257135,2.5377087323997554,4.143411644234538,0.21642082724729717,0.20420352248333673,0.02268928027592665,0.02094395102393154
259390,2.558652683423687,4.1643555952584705,0.2373647782712287,0.22514747350726916,0.02094395102393154,0.020943951023932428
261659,2.5795966344476193,4.183554217030408,0.25830872929516113,0.24434609527920648,0.020943951023932428,0.01919862177193732
263916,2.600540585471551,4.202752838802346,0.27925268031909267,0.2635447170511447,0.02094395102393154,0.019198621771938207
266172,2.6232298657474775,4.223696789826278,0.3019419605950193,0.2844886680750762,0.02268928027592665,0.02094395102393154
268423,2.6459191460234033,4.246386070102204,0.3246312408709451,0.30717794835100287,0.02268928027592576,0.02268928027592665
270682,2.6668630970473357,4.267330021126136,0.3455751918948775,0.3281218993749344,0.020943951023932428,0.02094395102393154
272937,2.6878070480712677,4.288273972150067,0.3665191429188095,0.34906585039886595,0.020943951023931984,0.02094395102393154
275193,2.7087509990951992,4.312708581677988,0.38746309394274103,0.3735004599267868,0.02094395102393154,0.02443460952792087
277448,2.7296949501191317,4.333652532701921,0.40840704496667346,0.39444441095071925,0.020943951023932428,0.020943951023932428
279702,2.7523842303950574,4.356341812977846,0.4310963252425992,0.417133691226645,0.02268928027592576,0.02268928027592576
281961,2.7715828521669956,4.379031093253773,0.45029494701453743,0.43982297150257166,0.019198621771938207,0.02268928027592665
284216,2.7960174616949156,4.405211032033688,0.4747295565424574,0.46600291028248675,0.02443460952791998,0.02617993877991509
286466,2.8187067419708423,4.4244096538056255,0.49741883681838406,0.48520153205442407,0.02268928027592665,0.01919862177193732
288732,2.841396022246769,4.448844263333546,0.5201081170943107,0.5096361415823449,0.02268928027592665,0.02443460952792087
290984,2.8623399732707004,4.471533543609472,0.5410520681182422,0.5323254218582707,0.02094395102393154,0.02268928027592576
293239,2.8832839242946324,4.494222823885399,0.5619960191421742,0.5550147021341973,0.020943951023931984,0.02268928027592665
295516,2.9059732045705586,4.518657433413319,0.5846852994181004,0.5794493116621173,0.022689280275926205,0.02443460952791998
297771,2.9286624848464853,4.541346713689245,0.6073745796940271,0.602138591938044,0.02268928027592665,0.02268928027592665
300020,2.949606435870417,4.562290664713177,0.6283185307179586,0.6230825429619755,0.02094395102393154,0.02094395102393154
302271,2.970550386894349,4.586725274241099,0.6492624817418906,0.6475171524898973,0.020943951023931984,0.024434609527921758
304542,2.991494337918281,4.609414554517024,0.6702064327658226,0.670206432765823,0.020943951023931984,0.02268928027592576
306793,3.014183618194207,4.63210383479295,0.6928957130417488,0.6928957130417488,0.022689280275926205,0.02268928027592576
309050,3.0333822399661448,4.656538444320871,0.7120943348136866,0.7173303225696697,0.019198621771937763,0.02443460952792087
311306,3.0543261909900767,4.679227724596798,0.7330382858376185,0.7400196028455963,0.020943951023931984,0.02268928027592665
313558,3.0752701420140083,4.7019170048727235,0.7539822368615501,0.7627088831215221,0.02094395102393154,0.02268928027592576
315810,3.097959422289935,4.72460628514865,0.7766715171374767,0.7853981633974487,0.02268928027592665,0.02268928027592665
318062,3.118903373313867,4.747295565424577,0.7976154681614087,0.8080874436733754,0.020943951023931984,0.02268928027592665
320311,3.1381019950858047,4.768239516448508,0.8168140899333465,0.8290313946973069,0.019198621771937763,0.02094395102393154
322712,3.160791275361731,4.790928796724435,0.8395033702092727,0.8517206749732336,0.022689280275926205,0.02268928027592665
325050,3.183480555637657,4.813618077000361,0.8621926504851989,0.8744099552491593,0.022689280275926205,0.02268928027592576
327425,3.202679177409595,4.834562028024293,0.8813912722571366,0.8953539062730917,0.019198621771937763,0.020943951023932428
Time (ms),angleL,angleR,angDispL,angDispR,dThetaL,dThetaR
333036,3.2550390549694246,4.885176576332128,0.02268928027592665,0.02268928027592576,0.02268928027592665,0.02268928027592576
335315,3.2724923474893677,4.900884539600078,0.040142572795869746,0.038397243543875526,0.017453292519943098,0.015707963267949765
337578,3.2899456400093112,4.914847173616033,0.05759586531581329,0.05235987755983018,0.017453292519943542,0.013962634015954656
339836,3.30565360327726,4.927064478379992,0.07330382858376217,0.06457718232378973,0.015707963267948877,0.012217304763959547
342105,3.3231068957972036,4.944517770899936,0.0907571211037057,0.08203047484373371,0.017453292519943542,0.017453292519943986
344364,3.3405601883171467,4.960225734167884,0.1082104136236488,0.0977384381116817,0.017453292519943098,0.01570796326794799
346617,3.356268151585096,4.975933697435834,0.12391837689159813,0.11344640137963147,0.01570796326794932,0.015707963267949765
348870,3.373721444105039,4.995132319207771,0.14137166941154122,0.13264502315156879,0.017453292519943098,0.01919862177193732
351142,3.3911747366249827,5.012585611727714,0.15882496193148476,0.15009831567151188,0.017453292519943542,0.017453292519943098
353398,3.41037335839692,5.0317842334996525,0.17802358370342208,0.1692969374434501,0.01919862177193732,0.019198621771938207
355664,3.426081321664869,5.050982855271589,0.19373154697137096,0.18849555921538652,0.015707963267948877,0.01919862177193643
357924,3.4435346141848124,5.070181477043527,0.2111848394913145,0.20769418098732473,0.017453292519943542,0.019198621771938207
360176,3.4609879067047555,5.089380098815465,0.2286381320112576,0.22689280275926293,0.017453292519943098,0.019198621771938207
362430,3.4766958699727044,5.110324049839397,0.24434609527920648,0.24783675378319447,0.015707963267948877,0.02094395102393154
364684,3.4941491624926475,5.129522671611334,0.2617993877991496,0.2670353755551318,0.017453292519943098,0.01919862177193732
366935,3.509857125760597,5.1487212933832724,0.2775073510670989,0.28623399732707,0.01570796326794932,0.019198621771938207
369187,3.5255650890285457,5.169665244407204,0.29321531433504777,0.30717794835100154,0.015707963267948877,0.02094395102393154
371494,3.544763710800483,5.1906091954311355,0.3124139361069851,0.3281218993749331,0.01919862177193732,0.02094395102393154
373751,3.5604716740684323,5.211553146455069,0.3281218993749344,0.3490658503988664,0.01570796326794932,0.020943951023933316
376002,3.5779249665883754,5.232497097479,0.3455751918948775,0.37000980142279793,0.017453292519943098,0.02094395102393154
378257,3.597123588360313,5.255186377754927,0.36477381366681527,0.3926990816987246,0.019198621771937763,0.02268928027592665
380506,3.6145768808802563,5.276130328778859,0.38222710618675837,0.4136430327226561,0.017453292519943098,0.02094395102393154
382771,3.633775502652194,5.295328950550796,0.40142572795869613,0.43284165449459344,0.019198621771937763,0.01919862177193732
385026,3.651228795172137,5.318018230826722,0.41887902047863923,0.4555309347705192,0.017453292519943098,0.02268928027592576
387278,3.6669367584400865,5.338962181850654,0.43458698374658855,0.47647488579445163,0.01570796326794932,0.020943951023932428
